Frequency [Hz], |S00| [-], |S10| [-], |S20| [-], |S30| [-], Arg(S00) [-], Arg(S10) [-], Arg(S20) [-], Arg(S30) [-], Delay 0>0 [s], Delay 0>1 [s], Delay 0>2 [s], Delay 0>3 [s], |Z0| [Ohm] , Arg(Z0) [-]
2.000000e+08, 1.165614e-01, 9.700798e-01, 2.569270e-02, 6.977651e-03, 2.877586e+00, -2.105619e-01, 1.398239e+00, -1.086076e+00, 2.569745e-10, 1.608543e-10, -9.729548e-11, 1.400271e-10, 3.989431e+01, 6.159350e-02
2.038000e+08, 1.164004e-01, 9.701564e-01, 2.618470e-02, 7.118475e-03, 2.871450e+00, -2.144025e-01, 1.400562e+00, -1.089419e+00, 2.558571e-10, 1.610767e-10, -9.423845e-11, 1.469344e-10, 3.992244e+01, 6.289756e-02
2.076000e+08, 1.162369e-01, 9.702338e-01, 2.667006e-02, 7.260087e-03, 2.865341e+00, -2.182484e-01, 1.402813e+00, -1.092927e+00, 2.547908e-10, 1.612911e-10, -9.072867e-11, 1.536042e-10, 3.995103e+01, 6.418766e-02
2.114000e+08, 1.160709e-01, 9.703117e-01, 2.714877e-02, 7.402482e-03, 2.859258e+00, -2.220994e-01, 1.404979e+00, -1.096595e+00, 2.537723e-10, 1.614981e-10, -8.682127e-11, 1.600515e-10, 3.998005e+01, 6.546400e-02
2.152000e+08, 1.159024e-01, 9.703902e-01, 2.762081e-02, 7.545651e-03, 2.853199e+00, -2.259554e-01, 1.407052e+00, -1.100416e+00, 2.527986e-10, 1.616982e-10, -8.256949e-11, 1.662897e-10, 4.000951e+01, 6.672677e-02
2.190000e+08, 1.157314e-01, 9.704693e-01, 2.808623e-02, 7.689587e-03, 2.847163e+00, -2.298161e-01, 1.409023e+00, -1.104387e+00, 2.518669e-10, 1.618917e-10, -7.802423e-11, 1.723312e-10, 4.003940e+01, 6.797615e-02
2.228000e+08, 1.155580e-01, 9.705488e-01, 2.854508e-02, 7.834279e-03, 2.841149e+00, -2.336814e-01, 1.410886e+00, -1.108501e+00, 2.509747e-10, 1.620790e-10, -7.323373e-11, 1.781869e-10, 4.006972e+01, 6.921230e-02
2.266000e+08, 1.153820e-01, 9.706288e-01, 2.899746e-02, 7.979717e-03, 2.835157e+00, -2.375512e-01, 1.412635e+00, -1.112756e+00, 2.501197e-10, 1.622606e-10, -6.824323e-11, 1.838668e-10, 4.010047e+01, 7.043535e-02
2.304000e+08, 1.152036e-01, 9.707092e-01, 2.944346e-02, 8.125889e-03, 2.829185e+00, -2.414254e-01, 1.414264e+00, -1.117146e+00, 2.492999e-10, 1.624368e-10, -6.309480e-11, 1.893798e-10, 4.013163e+01, 7.164545e-02
2.342000e+08, 1.150228e-01, 9.707900e-01, 2.988322e-02, 8.272783e-03, 2.823233e+00, -2.453037e-01, 1.415770e+00, -1.121667e+00, 2.485132e-10, 1.626078e-10, -5.782726e-11, 1.947340e-10, 4.016322e+01, 7.284271e-02
2.380000e+08, 1.148395e-01, 9.708711e-01, 3.031687e-02, 8.420384e-03, 2.817299e+00, -2.491862e-01, 1.417151e+00, -1.126317e+00, 2.477580e-10, 1.627739e-10, -5.247609e-11, 1.999367e-10, 4.019521e+01, 7.402725e-02
2.418000e+08, 1.146538e-01, 9.709526e-01, 3.074457e-02, 8.568677e-03, 2.811384e+00, -2.530726e-01, 1.418404e+00, -1.131090e+00, 2.470326e-10, 1.629353e-10, -4.707345e-11, 2.049945e-10, 4.022762e+01, 7.519917e-02
2.456000e+08, 1.144657e-01, 9.710344e-01, 3.116647e-02, 8.717647e-03, 2.805486e+00, -2.569628e-01, 1.419528e+00, -1.135985e+00, 2.463356e-10, 1.630924e-10, -4.164829e-11, 2.099133e-10, 4.026043e+01, 7.635857e-02
2.494000e+08, 1.142752e-01, 9.711164e-01, 3.158275e-02, 8.867277e-03, 2.799604e+00, -2.608569e-01, 1.420522e+00, -1.140997e+00, 2.456656e-10, 1.632453e-10, -3.622640e-11, 2.146984e-10, 4.029364e+01, 7.750553e-02
2.532000e+08, 1.140823e-01, 9.711986e-01, 3.199356e-02, 9.017548e-03, 2.793738e+00, -2.647545e-01, 1.421387e+00, -1.146123e+00, 2.450215e-10, 1.633942e-10, -3.083059e-11, 2.193546e-10, 4.032725e+01, 7.864013e-02
2.570000e+08, 1.138871e-01, 9.712810e-01, 3.239910e-02, 9.168442e-03, 2.787888e+00, -2.686557e-01, 1.422123e+00, -1.151360e+00, 2.444019e-10, 1.635393e-10, -2.548082e-11, 2.238861e-10, 4.036125e+01, 7.976246e-02
2.608000e+08, 1.136895e-01, 9.713635e-01, 3.279953e-02, 9.319939e-03, 2.782053e+00, -2.725604e-01, 1.422732e+00, -1.156706e+00, 2.438060e-10, 1.636807e-10, -2.019440e-11, 2.282968e-10, 4.039564e+01, 8.087259e-02
2.646000e+08, 1.134895e-01, 9.714462e-01, 3.319502e-02, 9.472018e-03, 2.776232e+00, -2.764685e-01, 1.423214e+00, -1.162157e+00, 2.432327e-10, 1.638186e-10, -1.498620e-11, 2.325901e-10, 4.043041e+01, 8.197057e-02
2.684000e+08, 1.132873e-01, 9.715290e-01, 3.358575e-02, 9.624657e-03, 2.770424e+00, -2.803798e-01, 1.423572e+00, -1.167710e+00, 2.426812e-10, 1.639532e-10, -9.868774e-12, 2.367691e-10, 4.046557e+01, 8.305647e-02
2.722000e+08, 1.130827e-01, 9.716118e-01, 3.397189e-02, 9.777834e-03, 2.764630e+00, -2.842944e-01, 1.423807e+00, -1.173363e+00, 2.421506e-10, 1.640845e-10, -4.852631e-12, 2.408365e-10, 4.050110e+01, 8.413035e-02
2.760000e+08, 1.128758e-01, 9.716947e-01, 3.435360e-02, 9.931525e-03, 2.758848e+00, -2.882121e-01, 1.423923e+00, -1.179113e+00, 2.416401e-10, 1.642126e-10, 5.361836e-14, 2.447949e-10, 4.053701e+01, 8.519227e-02
2.798000e+08, 1.126667e-01, 9.717775e-01, 3.473104e-02, 1.008571e-02, 2.753079e+00, -2.921328e-01, 1.423922e+00, -1.184958e+00, 2.411492e-10, 1.643378e-10, 4.843061e-12, 2.486462e-10, 4.057328e+01, 8.624226e-02
2.836000e+08, 1.124553e-01, 9.718603e-01, 3.510438e-02, 1.024035e-02, 2.747321e+00, -2.960566e-01, 1.423806e+00, -1.190895e+00, 2.406771e-10, 1.644601e-10, 9.510309e-12, 2.523926e-10, 4.060993e+01, 8.728038e-02
2.874000e+08, 1.122416e-01, 9.719431e-01, 3.547375e-02, 1.039544e-02, 2.741575e+00, -2.999833e-01, 1.423579e+00, -1.196921e+00, 2.402232e-10, 1.645795e-10, 1.405133e-11, 2.560358e-10, 4.064693e+01, 8.830668e-02
2.912000e+08, 1.120257e-01, 9.720258e-01, 3.583930e-02, 1.055093e-02, 2.735839e+00, -3.039128e-01, 1.423244e+00, -1.203034e+00, 2.397870e-10, 1.646962e-10, 1.846329e-11, 2.595774e-10, 4.068429e+01, 8.932119e-02
2.950000e+08, 1.118075e-01, 9.721084e-01, 3.620117e-02, 1.070682e-02, 2.730114e+00, -3.078451e-01, 1.422803e+00, -1.209232e+00, 2.393680e-10, 1.648103e-10, 2.274441e-11, 2.630186e-10, 4.072201e+01, 9.032395e-02
2.988000e+08, 1.115872e-01, 9.721908e-01, 3.655950e-02, 1.086306e-02, 2.724399e+00, -3.117801e-01, 1.422260e+00, -1.215512e+00, 2.389658e-10, 1.649218e-10, 2.689384e-11, 2.663609e-10, 4.076008e+01, 9.131501e-02
3.026000e+08, 1.113647e-01, 9.722731e-01, 3.691441e-02, 1.101963e-02, 2.718693e+00, -3.157178e-01, 1.421618e+00, -1.221871e+00, 2.385798e-10, 1.650308e-10, 3.091150e-11, 2.696054e-10, 4.079849e+01, 9.229440e-02
3.064000e+08, 1.111400e-01, 9.723552e-01, 3.726601e-02, 1.117649e-02, 2.712997e+00, -3.196581e-01, 1.420880e+00, -1.228308e+00, 2.382097e-10, 1.651374e-10, 3.479803e-11, 2.727531e-10, 4.083725e+01, 9.326216e-02
3.102000e+08, 1.109131e-01, 9.724371e-01, 3.761443e-02, 1.133363e-02, 2.707310e+00, -3.236009e-01, 1.420049e+00, -1.234821e+00, 2.378551e-10, 1.652416e-10, 3.855463e-11, 2.758049e-10, 4.087635e+01, 9.421831e-02
3.140000e+08, 1.106840e-01, 9.725187e-01, 3.795977e-02, 1.149102e-02, 2.701630e+00, -3.275463e-01, 1.419128e+00, -1.241406e+00, 2.375157e-10, 1.653434e-10, 4.218300e-11, 2.787617e-10, 4.091578e+01, 9.516288e-02
3.178000e+08, 1.104529e-01, 9.726001e-01, 3.830213e-02, 1.164861e-02, 2.695960e+00, -3.314940e-01, 1.418121e+00, -1.248062e+00, 2.371912e-10, 1.654431e-10, 4.568526e-11, 2.816244e-10, 4.095555e+01, 9.609592e-02
3.216000e+08, 1.102196e-01, 9.726812e-01, 3.864161e-02, 1.180638e-02, 2.690296e+00, -3.354441e-01, 1.417030e+00, -1.254786e+00, 2.368812e-10, 1.655405e-10, 4.906386e-11, 2.843938e-10, 4.099564e+01, 9.701744e-02
3.254000e+08, 1.099842e-01, 9.727621e-01, 3.897830e-02, 1.196430e-02, 2.684641e+00, -3.393966e-01, 1.415859e+00, -1.261576e+00, 2.365855e-10, 1.656358e-10, 5.232154e-11, 2.870705e-10, 4.103606e+01, 9.792748e-02
3.292000e+08, 1.097467e-01, 9.728425e-01, 3.931229e-02, 1.212234e-02, 2.678992e+00, -3.433513e-01, 1.414610e+00, -1.268430e+00, 2.363038e-10, 1.657289e-10, 5.546124e-11, 2.896554e-10, 4.107680e+01, 9.882605e-02
3.330000e+08, 1.095071e-01, 9.729227e-01, 3.964364e-02, 1.228047e-02, 2.673350e+00, -3.473083e-01, 1.413286e+00, -1.275346e+00, 2.360359e-10, 1.658200e-10, 5.848609e-11, 2.921490e-10, 4.111786e+01, 9.971320e-02
3.368000e+08, 1.092655e-01, 9.730025e-01, 3.997245e-02, 1.243866e-02, 2.667714e+00, -3.512674e-01, 1.411889e+00, -1.282321e+00, 2.357816e-10, 1.659091e-10, 6.139934e-11, 2.945522e-10, 4.115924e+01, 1.005889e-01
3.406000e+08, 1.090218e-01, 9.730819e-01, 4.029878e-02, 1.259687e-02, 2.662085e+00, -3.552287e-01, 1.410423e+00, -1.289354e+00, 2.355407e-10, 1.659962e-10, 6.420433e-11, 2.968657e-10, 4.120092e+01, 1.014533e-01
3.444000e+08, 1.087760e-01, 9.731609e-01, 4.062270e-02, 1.275508e-02, 2.656461e+00, -3.591921e-01, 1.408890e+00, -1.296442e+00, 2.353130e-10, 1.660814e-10, 6.690445e-11, 2.990902e-10, 4.124292e+01, 1.023063e-01
3.482000e+08, 1.085283e-01, 9.732395e-01, 4.094426e-02, 1.291325e-02, 2.650842e+00, -3.631574e-01, 1.407293e+00, -1.303583e+00, 2.350983e-10, 1.661646e-10, 6.950314e-11, 3.012263e-10, 4.128521e+01, 1.031480e-01
3.520000e+08, 1.082785e-01, 9.733177e-01, 4.126354e-02, 1.307135e-02, 2.645229e+00, -3.671248e-01, 1.405633e+00, -1.310775e+00, 2.348965e-10, 1.662460e-10, 7.200383e-11, 3.032750e-10, 4.132781e+01, 1.039783e-01
3.558000e+08, 1.080268e-01, 9.733954e-01, 4.158057e-02, 1.322935e-02, 2.639621e+00, -3.710941e-01, 1.403914e+00, -1.318016e+00, 2.347073e-10, 1.663255e-10, 7.440994e-11, 3.052370e-10, 4.137071e+01, 1.047974e-01
3.596000e+08, 1.077730e-01, 9.734726e-01, 4.189542e-02, 1.338722e-02, 2.634017e+00, -3.750653e-01, 1.402138e+00, -1.325304e+00, 2.345308e-10, 1.664032e-10, 7.672485e-11, 3.071131e-10, 4.141390e+01, 1.056052e-01
3.634000e+08, 1.075173e-01, 9.735494e-01, 4.220812e-02, 1.354494e-02, 2.628417e+00, -3.790384e-01, 1.400306e+00, -1.332637e+00, 2.343667e-10, 1.664791e-10, 7.895192e-11, 3.089041e-10, 4.145738e+01, 1.064017e-01
3.672000e+08, 1.072596e-01, 9.736256e-01, 4.251873e-02, 1.370246e-02, 2.622821e+00, -3.830132e-01, 1.398421e+00, -1.340012e+00, 2.342150e-10, 1.665533e-10, 8.109443e-11, 3.106111e-10, 4.150115e+01, 1.071870e-01
3.710000e+08, 1.070000e-01, 9.737014e-01, 4.282728e-02, 1.385977e-02, 2.617229e+00, -3.869899e-01, 1.396484e+00, -1.347428e+00, 2.340755e-10, 1.666258e-10, 8.315560e-11, 3.122349e-10, 4.154521e+01, 1.079612e-01
3.748000e+08, 1.067385e-01, 9.737766e-01, 4.313381e-02, 1.401683e-02, 2.611641e+00, -3.909683e-01, 1.394499e+00, -1.354883e+00, 2.339481e-10, 1.666965e-10, 8.513857e-11, 3.137766e-10, 4.158954e+01, 1.087241e-01
3.786000e+08, 1.064750e-01, 9.738513e-01, 4.343836e-02, 1.417361e-02, 2.606055e+00, -3.949483e-01, 1.392466e+00, -1.362375e+00, 2.338327e-10, 1.667656e-10, 8.704642e-11, 3.152371e-10, 4.163416e+01, 1.094759e-01
3.824000e+08, 1.062097e-01, 9.739255e-01, 4.374096e-02, 1.433008e-02, 2.600472e+00, -3.989300e-01, 1.390388e+00, -1.369902e+00, 2.337294e-10, 1.668331e-10, 8.888213e-11, 3.166176e-10, 4.167905e+01, 1.102165e-01
3.862000e+08, 1.059424e-01, 9.739990e-01, 4.404164e-02, 1.448622e-02, 2.594891e+00, -4.029134e-01, 1.388266e+00, -1.377461e+00, 2.336379e-10, 1.668990e-10, 9.064858e-11, 3.179192e-10, 4.172421e+01, 1.109460e-01
3.900000e+08, 1.056733e-01, 9.740721e-01, 4.434044e-02, 1.464201e-02, 2.589313e+00, -4.068983e-01, 1.386101e+00, -1.385052e+00, 2.335582e-10, 1.669632e-10, 9.234859e-11, 3.191430e-10, 4.176964e+01, 1.116644e-01
3.938000e+08, 1.054023e-01, 9.741445e-01, 4.463736e-02, 1.479740e-02, 2.583736e+00, -4.108847e-01, 1.383896e+00, -1.392672e+00, 2.334903e-10, 1.670260e-10, 9.398486e-11, 3.202903e-10, 4.181533e+01, 1.123717e-01
3.976000e+08, 1.051295e-01, 9.742163e-01, 4.493245e-02, 1.495238e-02, 2.578162e+00, -4.148726e-01, 1.381652e+00, -1.400319e+00, 2.334341e-10, 1.670871e-10, 9.556001e-11, 3.213623e-10, 4.186129e+01, 1.130679e-01
4.014000e+08, 1.048548e-01, 9.742875e-01, 4.522572e-02, 1.510693e-02, 2.572588e+00, -4.188620e-01, 1.379371e+00, -1.407992e+00, 2.333895e-10, 1.671468e-10, 9.707658e-11, 3.223603e-10, 4.190751e+01, 1.137531e-01
4.052000e+08, 1.045782e-01, 9.743581e-01, 4.551719e-02, 1.526101e-02, 2.567016e+00, -4.228528e-01, 1.377053e+00, -1.415689e+00, 2.333565e-10, 1.672049e-10, 9.853700e-11, 3.232857e-10, 4.195398e+01, 1.144272e-01
4.090000e+08, 1.042999e-01, 9.744281e-01, 4.580689e-02, 1.541461e-02, 2.561444e+00, -4.268450e-01, 1.374700e+00, -1.423408e+00, 2.333351e-10, 1.672616e-10, 9.994360e-11, 3.241399e-10, 4.200071e+01, 1.150903e-01
4.128000e+08, 1.040198e-01, 9.744975e-01, 4.609483e-02, 1.556770e-02, 2.555873e+00, -4.308386e-01, 1.372314e+00, -1.431147e+00, 2.333252e-10, 1.673169e-10, 1.012987e-10, 3.249242e-10, 4.204769e+01, 1.157425e-01
4.166000e+08, 1.037378e-01, 9.745662e-01, 4.638102e-02, 1.572026e-02, 2.550302e+00, -4.348334e-01, 1.369895e+00, -1.438905e+00, 2.333267e-10, 1.673707e-10, 1.026043e-10, 3.256401e-10, 4.209492e+01, 1.163836e-01
4.204000e+08, 1.034541e-01, 9.746343e-01, 4.666549e-02, 1.587226e-02, 2.544731e+00, -4.388296e-01, 1.367446e+00, -1.446680e+00, 2.333398e-10, 1.674231e-10, 1.038627e-10, 3.262891e-10, 4.214239e+01, 1.170138e-01
4.242000e+08, 1.031686e-01, 9.747018e-01, 4.694824e-02, 1.602369e-02, 2.539160e+00, -4.428270e-01, 1.364966e+00, -1.454470e+00, 2.333643e-10, 1.674742e-10, 1.050757e-10, 3.268726e-10, 4.219010e+01, 1.176330e-01
4.280000e+08, 1.028814e-01, 9.747685e-01, 4.722929e-02, 1.617453e-02, 2.533588e+00, -4.468257e-01, 1.362457e+00, -1.462275e+00, 2.334002e-10, 1.675239e-10, 1.062454e-10, 3.273923e-10, 4.223805e+01, 1.182413e-01
4.318000e+08, 1.025924e-01, 9.748346e-01, 4.750865e-02, 1.632475e-02, 2.528015e+00, -4.508255e-01, 1.359920e+00, -1.470092e+00, 2.334475e-10, 1.675722e-10, 1.073735e-10, 3.278497e-10, 4.228624e+01, 1.188387e-01
4.356000e+08, 1.023017e-01, 9.749001e-01, 4.778633e-02, 1.647434e-02, 2.522441e+00, -4.548264e-01, 1.357357e+00, -1.477919e+00, 2.335062e-10, 1.676192e-10, 1.084618e-10, 3.282463e-10, 4.233466e+01, 1.194252e-01
4.394000e+08, 1.020092e-01, 9.749649e-01, 4.806235e-02, 1.662329e-02, 2.516866e+00, -4.588285e-01, 1.354767e+00, -1.485757e+00, 2.335763e-10, 1.676650e-10, 1.095121e-10, 3.285837e-10, 4.238331e+01, 1.200008e-01
4.432000e+08, 1.017151e-01, 9.750290e-01, 4.833670e-02, 1.677156e-02, 2.511289e+00, -4.628317e-01, 1.352152e+00, -1.493602e+00, 2.336577e-10, 1.677094e-10, 1.105258e-10, 3.288636e-10, 4.243219e+01, 1.205655e-01
4.470000e+08, 1.014192e-01, 9.750924e-01, 4.860940e-02, 1.691916e-02, 2.505710e+00, -4.668360e-01, 1.349513e+00, -1.501454e+00, 2.337506e-10, 1.677526e-10, 1.115046e-10, 3.290875e-10, 4.248130e+01, 1.211194e-01
4.508000e+08, 1.011217e-01, 9.751551e-01, 4.888046e-02, 1.706606e-02, 2.500129e+00, -4.708412e-01, 1.346851e+00, -1.509311e+00, 2.338548e-10, 1.677946e-10, 1.124499e-10, 3.292571e-10, 4.253062e+01, 1.216624e-01
4.546000e+08, 1.008224e-01, 9.752172e-01, 4.914988e-02, 1.721225e-02, 2.494546e+00, -4.748475e-01, 1.344166e+00, -1.517173e+00, 2.339704e-10, 1.678354e-10, 1.133631e-10, 3.293739e-10, 4.258016e+01, 1.221947e-01
4.584000e+08, 1.005215e-01, 9.752786e-01, 4.941767e-02, 1.735772e-02, 2.488960e+00, -4.788548e-01, 1.341460e+00, -1.525037e+00, 2.340974e-10, 1.678749e-10, 1.142457e-10, 3.294397e-10, 4.262993e+01, 1.227161e-01
4.622000e+08, 1.002190e-01, 9.753392e-01, 4.968383e-02, 1.750245e-02, 2.483370e+00, -4.828630e-01, 1.338732e+00, -1.532902e+00, 2.342358e-10, 1.679133e-10, 1.150989e-10, 3.294560e-10, 4.267990e+01, 1.232267e-01
4.660000e+08, 9.991478e-02, 9.753992e-01, 4.994838e-02, 1.764643e-02, 2.477778e+00, -4.868721e-01, 1.335984e+00, -1.540769e+00, 2.343857e-10, 1.679505e-10, 1.159239e-10, 3.294244e-10, 4.273008e+01, 1.237265e-01
4.698000e+08, 9.960894e-02, 9.754585e-01, 5.021130e-02, 1.778965e-02, 2.472181e+00, -4.908821e-01, 1.333216e+00, -1.548634e+00, 2.345470e-10, 1.679866e-10, 1.167219e-10, 3.293466e-10, 4.278048e+01, 1.242156e-01
4.736000e+08, 9.930147e-02, 9.755171e-01, 5.047262e-02, 1.793210e-02, 2.466581e+00, -4.948930e-01, 1.330429e+00, -1.556497e+00, 2.347198e-10, 1.680216e-10, 1.174941e-10, 3.292242e-10, 4.283108e+01, 1.246939e-01
4.774000e+08, 9.899238e-02, 9.755750e-01, 5.073232e-02, 1.807377e-02, 2.460977e+00, -4.989047e-01, 1.327624e+00, -1.564358e+00, 2.349040e-10, 1.680555e-10, 1.182415e-10, 3.290587e-10, 4.288188e+01, 1.251614e-01
4.812000e+08, 9.868168e-02, 9.756322e-01, 5.099042e-02, 1.821465e-02, 2.455369e+00, -5.029172e-01, 1.324801e+00, -1.572215e+00, 2.350998e-10, 1.680883e-10, 1.189652e-10, 3.288516e-10, 4.293288e+01, 1.256183e-01
4.850000e+08, 9.836939e-02, 9.756887e-01, 5.124692e-02, 1.835474e-02, 2.449755e+00, -5.069305e-01, 1.321960e+00, -1.580066e+00, 2.353071e-10, 1.681200e-10, 1.196662e-10, 3.286047e-10, 4.298408e+01, 1.260644e-01
4.888000e+08, 9.805551e-02, 9.757446e-01, 5.150182e-02, 1.849402e-02, 2.444137e+00, -5.109445e-01, 1.319103e+00, -1.587912e+00, 2.355260e-10, 1.681508e-10, 1.203453e-10, 3.283193e-10, 4.303547e+01, 1.264998e-01
4.926000e+08, 9.774006e-02, 9.757997e-01, 5.175511e-02, 1.863249e-02, 2.438514e+00, -5.149593e-01, 1.316230e+00, -1.595751e+00, 2.357565e-10, 1.681804e-10, 1.210036e-10, 3.279971e-10, 4.308705e+01, 1.269246e-01
4.964000e+08, 9.742304e-02, 9.758541e-01, 5.200682e-02, 1.877014e-02, 2.432885e+00, -5.189748e-01, 1.313340e+00, -1.603582e+00, 2.359987e-10, 1.682091e-10, 1.216418e-10, 3.276394e-10, 4.313883e+01, 1.273386e-01
5.002000e+08, 9.710446e-02, 9.759078e-01, 5.225693e-02, 1.890696e-02, 2.427250e+00, -5.229910e-01, 1.310436e+00, -1.611405e+00, 2.362526e-10, 1.682368e-10, 1.222608e-10, 3.272478e-10, 4.319079e+01, 1.277420e-01
5.040000e+08, 9.678433e-02, 9.759609e-01, 5.250544e-02, 1.904296e-02, 2.421609e+00, -5.270078e-01, 1.307517e+00, -1.619219e+00, 2.365183e-10, 1.682636e-10, 1.228614e-10, 3.268237e-10, 4.324293e+01, 1.281348e-01
5.078000e+08, 9.646267e-02, 9.760133e-01, 5.275236e-02, 1.917813e-02, 2.415962e+00, -5.310253e-01, 1.304584e+00, -1.627022e+00, 2.367958e-10, 1.682894e-10, 1.234444e-10, 3.263685e-10, 4.329525e+01, 1.285169e-01
5.116000e+08, 9.613948e-02, 9.760649e-01, 5.299769e-02, 1.931246e-02, 2.410308e+00, -5.350434e-01, 1.301636e+00, -1.634814e+00, 2.370851e-10, 1.683142e-10, 1.240104e-10, 3.258837e-10, 4.334776e+01, 1.288884e-01
5.154000e+08, 9.581477e-02, 9.761159e-01, 5.324144e-02, 1.944595e-02, 2.404648e+00, -5.390621e-01, 1.298675e+00, -1.642595e+00, 2.373864e-10, 1.683382e-10, 1.245601e-10, 3.253704e-10, 4.340044e+01, 1.292492e-01
5.192000e+08, 9.548855e-02, 9.761662e-01, 5.348359e-02, 1.957860e-02, 2.398980e+00, -5.430813e-01, 1.295701e+00, -1.650364e+00, 2.376996e-10, 1.683612e-10, 1.250942e-10, 3.248301e-10, 4.345329e+01, 1.295995e-01
5.230000e+08, 9.516083e-02, 9.762159e-01, 5.372415e-02, 1.971041e-02, 2.393304e+00, -5.471012e-01, 1.292715e+00, -1.658119e+00, 2.380248e-10, 1.683834e-10, 1.256133e-10, 3.242641e-10, 4.350631e+01, 1.299391e-01
5.268000e+08, 9.483162e-02, 9.762648e-01, 5.396312e-02, 1.984136e-02, 2.387621e+00, -5.511215e-01, 1.289715e+00, -1.665862e+00, 2.383622e-10, 1.684047e-10, 1.261181e-10, 3.236736e-10, 4.355950e+01, 1.302682e-01
5.306000e+08, 9.450093e-02, 9.763131e-01, 5.420050e-02, 1.997148e-02, 2.381930e+00, -5.551423e-01, 1.286704e+00, -1.673590e+00, 2.387118e-10, 1.684252e-10, 1.266091e-10, 3.230599e-10, 4.361286e+01, 1.305867e-01
5.344000e+08, 9.416877e-02, 9.763607e-01, 5.443630e-02, 2.010074e-02, 2.376231e+00, -5.591637e-01, 1.283681e+00, -1.681303e+00, 2.390736e-10, 1.684449e-10, 1.270868e-10, 3.224241e-10, 4.366638e+01, 1.308946e-01
5.382000e+08, 9.383515e-02, 9.764077e-01, 5.467050e-02, 2.022915e-02, 2.370522e+00, -5.631855e-01, 1.280647e+00, -1.689001e+00, 2.394477e-10, 1.684637e-10, 1.275518e-10, 3.217674e-10, 4.372006e+01, 1.311920e-01
5.420000e+08, 9.350008e-02, 9.764540e-01, 5.490312e-02, 2.035672e-02, 2.364805e+00, -5.672077e-01, 1.277601e+00, -1.696684e+00, 2.398343e-10, 1.684818e-10, 1.280046e-10, 3.210909e-10, 4.377389e+01, 1.314788e-01
5.458000e+08, 9.316356e-02, 9.764996e-01, 5.513414e-02, 2.048344e-02, 2.359079e+00, -5.712304e-01, 1.274545e+00, -1.704350e+00, 2.402333e-10, 1.684991e-10, 1.284456e-10, 3.203957e-10, 4.382788e+01, 1.317551e-01
5.496000e+08, 9.282561e-02, 9.765446e-01, 5.536358e-02, 2.060931e-02, 2.353343e+00, -5.752535e-01, 1.271478e+00, -1.712000e+00, 2.406450e-10, 1.685157e-10, 1.288754e-10, 3.196829e-10, 4.388202e+01, 1.320208e-01
